# Pulseq sequence file
# Created by PyPulseq

[VERSION]
major 0
minor 0
revision 1-alpha

[DEFINITIONS]
Total duration 37 

# Format of blocks:
#  #  D RF  GX  GY  GZ ADC EXT
[BLOCKS]
   1  0  1   0   0   0  0  0
   2  1  0   0   0   0  0  0
   3  0  0   1   0   0  0  0
   4  2  0   0   0   0  0  0
   5  0  2   0   0   0  0  0
   6  3  0   0   0   0  0  0
   7  0  0   2   3   3  0  0
   8  4  0   0   0   0  0  0
   9  0  0   4   0   0  0  0
  10  3  0   0   0   0  0  0
  11  0  0   2   5   5  0  0
  12  4  0   0   0   0  0  0
  13  0  2   0   0   0  0  0
  14  3  0   0   0   0  0  0
  15  0  0   2   3   3  0  0
  16  4  0   0   0   0  0  0
  17  0  0   4   0   0  0  0
  18  3  0   0   0   0  0  0
  19  0  0   2   5   5  0  0
  20  4  0   0   0   0  0  0
  21  0  2   0   0   0  0  0
  22  3  0   0   0   0  0  0
  23  0  0   2   3   3  0  0
  24  4  0   0   0   0  0  0
  25  0  0   4   0   0  0  0
  26  3  0   0   0   0  0  0
  27  0  0   2   5   5  0  0
  28  4  0   0   0   0  0  0
  29  0  2   0   0   0  0  0
  30  3  0   0   0   0  0  0
  31  0  0   2   3   3  0  0
  32  4  0   0   0   0  0  0
  33  0  0   4   0   0  0  0
  34  3  0   0   0   0  0  0
  35  0  0   2   5   5  0  0
  36  4  0   0   0   0  0  0
  37  0  2   0   0   0  0  0
  38  3  0   0   0   0  0  0
  39  0  0   2   3   3  0  0
  40  4  0   0   0   0  0  0
  41  0  0   4   0   0  0  0
  42  3  0   0   0   0  0  0
  43  0  0   2   5   5  0  0
  44  4  0   0   0   0  0  0
  45  0  2   0   0   0  0  0
  46  3  0   0   0   0  0  0
  47  0  0   2   3   3  0  0
  48  4  0   0   0   0  0  0
  49  0  0   4   0   0  0  0
  50  3  0   0   0   0  0  0
  51  0  0   2   5   5  0  0
  52  4  0   0   0   0  0  0
  53  0  2   0   0   0  0  0
  54  3  0   0   0   0  0  0
  55  0  0   2   3   3  0  0
  56  4  0   0   0   0  0  0
  57  0  0   4   0   0  0  0
  58  3  0   0   0   0  0  0
  59  0  0   2   5   5  0  0
  60  4  0   0   0   0  0  0
  61  0  2   0   0   0  0  0
  62  3  0   0   0   0  0  0
  63  0  0   2   3   3  0  0
  64  4  0   0   0   0  0  0
  65  0  0   4   0   0  0  0
  66  3  0   0   0   0  0  0
  67  0  0   2   5   5  0  0
  68  4  0   0   0   0  0  0
  69  0  0   6   6   6  0  0
  70  5  0   0   0   0  0  0
  71  0  3   0   0   0  0  0
  72  1  0   0   0   0  0  0
  73  0  0   1   0   0  0  0
  74  2  0   0   0   0  0  0
  75  0  4   0   0   0  0  0
  76  3  0   0   0   0  0  0
  77  0  0   2   3   3  0  0
  78  4  0   0   0   0  0  0
  79  0  0   4   0   0  0  0
  80  3  0   0   0   0  0  0
  81  0  0   2   5   5  0  0
  82  4  0   0   0   0  0  0
  83  0  4   0   0   0  0  0
  84  3  0   0   0   0  0  0
  85  0  0   2   3   3  0  0
  86  4  0   0   0   0  0  0
  87  0  0   4   0   0  0  0
  88  3  0   0   0   0  0  0
  89  0  0   2   5   5  0  0
  90  4  0   0   0   0  0  0
  91  0  4   0   0   0  0  0
  92  3  0   0   0   0  0  0
  93  0  0   2   3   3  0  0
  94  4  0   0   0   0  0  0
  95  0  0   4   0   0  0  0
  96  3  0   0   0   0  0  0
  97  0  0   2   5   5  0  0
  98  4  0   0   0   0  0  0
  99  0  4   0   0   0  0  0
 100  3  0   0   0   0  0  0
 101  0  0   2   3   3  0  0
 102  4  0   0   0   0  0  0
 103  0  0   4   0   0  0  0
 104  3  0   0   0   0  0  0
 105  0  0   2   5   5  0  0
 106  4  0   0   0   0  0  0
 107  0  4   0   0   0  0  0
 108  3  0   0   0   0  0  0
 109  0  0   2   3   3  0  0
 110  4  0   0   0   0  0  0
 111  0  0   4   0   0  0  0
 112  3  0   0   0   0  0  0
 113  0  0   2   5   5  0  0
 114  4  0   0   0   0  0  0
 115  0  4   0   0   0  0  0
 116  3  0   0   0   0  0  0
 117  0  0   2   3   3  0  0
 118  4  0   0   0   0  0  0
 119  0  0   4   0   0  0  0
 120  3  0   0   0   0  0  0
 121  0  0   2   5   5  0  0
 122  4  0   0   0   0  0  0
 123  0  4   0   0   0  0  0
 124  3  0   0   0   0  0  0
 125  0  0   2   3   3  0  0
 126  4  0   0   0   0  0  0
 127  0  0   4   0   0  0  0
 128  3  0   0   0   0  0  0
 129  0  0   2   5   5  0  0
 130  4  0   0   0   0  0  0
 131  0  4   0   0   0  0  0
 132  3  0   0   0   0  0  0
 133  0  0   2   3   3  0  0
 134  4  0   0   0   0  0  0
 135  0  0   4   0   0  0  0
 136  3  0   0   0   0  0  0
 137  0  0   2   5   5  0  0
 138  4  0   0   0   0  0  0
 139  0  0   6   6   6  0  0
 140  5  0   0   0   0  0  0
 141  0  5   0   0   0  0  0
 142  1  0   0   0   0  0  0
 143  0  0   1   0   0  0  0
 144  2  0   0   0   0  0  0
 145  0  6   0   0   0  0  0
 146  3  0   0   0   0  0  0
 147  0  0   2   3   3  0  0
 148  4  0   0   0   0  0  0
 149  0  0   4   0   0  0  0
 150  3  0   0   0   0  0  0
 151  0  0   2   5   5  0  0
 152  4  0   0   0   0  0  0
 153  0  6   0   0   0  0  0
 154  3  0   0   0   0  0  0
 155  0  0   2   3   3  0  0
 156  4  0   0   0   0  0  0
 157  0  0   4   0   0  0  0
 158  3  0   0   0   0  0  0
 159  0  0   2   5   5  0  0
 160  4  0   0   0   0  0  0
 161  0  6   0   0   0  0  0
 162  3  0   0   0   0  0  0
 163  0  0   2   3   3  0  0
 164  4  0   0   0   0  0  0
 165  0  0   4   0   0  0  0
 166  3  0   0   0   0  0  0
 167  0  0   2   5   5  0  0
 168  4  0   0   0   0  0  0
 169  0  6   0   0   0  0  0
 170  3  0   0   0   0  0  0
 171  0  0   2   3   3  0  0
 172  4  0   0   0   0  0  0
 173  0  0   4   0   0  0  0
 174  3  0   0   0   0  0  0
 175  0  0   2   5   5  0  0
 176  4  0   0   0   0  0  0
 177  0  6   0   0   0  0  0
 178  3  0   0   0   0  0  0
 179  0  0   2   3   3  0  0
 180  4  0   0   0   0  0  0
 181  0  0   4   0   0  0  0
 182  3  0   0   0   0  0  0
 183  0  0   2   5   5  0  0
 184  4  0   0   0   0  0  0
 185  0  6   0   0   0  0  0
 186  3  0   0   0   0  0  0
 187  0  0   2   3   3  0  0
 188  4  0   0   0   0  0  0
 189  0  0   4   0   0  0  0
 190  3  0   0   0   0  0  0
 191  0  0   2   5   5  0  0
 192  4  0   0   0   0  0  0
 193  0  6   0   0   0  0  0
 194  3  0   0   0   0  0  0
 195  0  0   2   3   3  0  0
 196  4  0   0   0   0  0  0
 197  0  0   4   0   0  0  0
 198  3  0   0   0   0  0  0
 199  0  0   2   5   5  0  0
 200  4  0   0   0   0  0  0
 201  0  6   0   0   0  0  0
 202  3  0   0   0   0  0  0
 203  0  0   2   3   3  0  0
 204  4  0   0   0   0  0  0
 205  0  0   4   0   0  0  0
 206  3  0   0   0   0  0  0
 207  0  0   2   5   5  0  0
 208  4  0   0   0   0  0  0
 209  0  0   6   6   6  0  0
 210  5  0   0   0   0  0  0
 211  0  7   0   0   0  0  0
 212  1  0   0   0   0  0  0
 213  0  0   1   0   0  0  0
 214  2  0   0   0   0  0  0
 215  0  8   0   0   0  0  0
 216  3  0   0   0   0  0  0
 217  0  0   2   3   3  0  0
 218  4  0   0   0   0  0  0
 219  0  0   4   0   0  0  0
 220  3  0   0   0   0  0  0
 221  0  0   2   5   5  0  0
 222  4  0   0   0   0  0  0
 223  0  8   0   0   0  0  0
 224  3  0   0   0   0  0  0
 225  0  0   2   3   3  0  0
 226  4  0   0   0   0  0  0
 227  0  0   4   0   0  0  0
 228  3  0   0   0   0  0  0
 229  0  0   2   5   5  0  0
 230  4  0   0   0   0  0  0
 231  0  8   0   0   0  0  0
 232  3  0   0   0   0  0  0
 233  0  0   2   3   3  0  0
 234  4  0   0   0   0  0  0
 235  0  0   4   0   0  0  0
 236  3  0   0   0   0  0  0
 237  0  0   2   5   5  0  0
 238  4  0   0   0   0  0  0
 239  0  8   0   0   0  0  0
 240  3  0   0   0   0  0  0
 241  0  0   2   3   3  0  0
 242  4  0   0   0   0  0  0
 243  0  0   4   0   0  0  0
 244  3  0   0   0   0  0  0
 245  0  0   2   5   5  0  0
 246  4  0   0   0   0  0  0
 247  0  8   0   0   0  0  0
 248  3  0   0   0   0  0  0
 249  0  0   2   3   3  0  0
 250  4  0   0   0   0  0  0
 251  0  0   4   0   0  0  0
 252  3  0   0   0   0  0  0
 253  0  0   2   5   5  0  0
 254  4  0   0   0   0  0  0
 255  0  8   0   0   0  0  0
 256  3  0   0   0   0  0  0
 257  0  0   2   3   3  0  0
 258  4  0   0   0   0  0  0
 259  0  0   4   0   0  0  0
 260  3  0   0   0   0  0  0
 261  0  0   2   5   5  0  0
 262  4  0   0   0   0  0  0
 263  0  8   0   0   0  0  0
 264  3  0   0   0   0  0  0
 265  0  0   2   3   3  0  0
 266  4  0   0   0   0  0  0
 267  0  0   4   0   0  0  0
 268  3  0   0   0   0  0  0
 269  0  0   2   5   5  0  0
 270  4  0   0   0   0  0  0
 271  0  8   0   0   0  0  0
 272  3  0   0   0   0  0  0
 273  0  0   2   3   3  0  0
 274  4  0   0   0   0  0  0
 275  0  0   4   0   0  0  0
 276  3  0   0   0   0  0  0
 277  0  0   2   5   5  0  0
 278  4  0   0   0   0  0  0
 279  0  0   6   6   6  0  0
 280  5  0   0   0   0  0  0
 281  0  9   0   0   0  0  0
 282  1  0   0   0   0  0  0
 283  0  0   1   0   0  0  0
 284  2  0   0   0   0  0  0
 285  0 10   0   0   0  0  0
 286  3  0   0   0   0  0  0
 287  0  0   2   3   3  0  0
 288  4  0   0   0   0  0  0
 289  0  0   4   0   0  0  0
 290  3  0   0   0   0  0  0
 291  0  0   2   5   5  0  0
 292  4  0   0   0   0  0  0
 293  0 10   0   0   0  0  0
 294  3  0   0   0   0  0  0
 295  0  0   2   3   3  0  0
 296  4  0   0   0   0  0  0
 297  0  0   4   0   0  0  0
 298  3  0   0   0   0  0  0
 299  0  0   2   5   5  0  0
 300  4  0   0   0   0  0  0
 301  0 10   0   0   0  0  0
 302  3  0   0   0   0  0  0
 303  0  0   2   3   3  0  0
 304  4  0   0   0   0  0  0
 305  0  0   4   0   0  0  0
 306  3  0   0   0   0  0  0
 307  0  0   2   5   5  0  0
 308  4  0   0   0   0  0  0
 309  0 10   0   0   0  0  0
 310  3  0   0   0   0  0  0
 311  0  0   2   3   3  0  0
 312  4  0   0   0   0  0  0
 313  0  0   4   0   0  0  0
 314  3  0   0   0   0  0  0
 315  0  0   2   5   5  0  0
 316  4  0   0   0   0  0  0
 317  0 10   0   0   0  0  0
 318  3  0   0   0   0  0  0
 319  0  0   2   3   3  0  0
 320  4  0   0   0   0  0  0
 321  0  0   4   0   0  0  0
 322  3  0   0   0   0  0  0
 323  0  0   2   5   5  0  0
 324  4  0   0   0   0  0  0
 325  0 10   0   0   0  0  0
 326  3  0   0   0   0  0  0
 327  0  0   2   3   3  0  0
 328  4  0   0   0   0  0  0
 329  0  0   4   0   0  0  0
 330  3  0   0   0   0  0  0
 331  0  0   2   5   5  0  0
 332  4  0   0   0   0  0  0
 333  0 10   0   0   0  0  0
 334  3  0   0   0   0  0  0
 335  0  0   2   3   3  0  0
 336  4  0   0   0   0  0  0
 337  0  0   4   0   0  0  0
 338  3  0   0   0   0  0  0
[RF]
1         3125 1 2 100 0 2.04204
2         6250 1 2 100 0 5.18363
3         3125 1 2 100 0 6.12611
4         6250 1 2 100 0 2.98451
5         3125 1 2 100 0 5.96903
6         6250 1 2 100 0 2.82743
7         3125 1 2 100 0 1.5708
8         6250 1 2 100 0 4.71239
9         3125 1 2 100 0 5.49779
10         6250 1 2 100 0 2.35619
11         3125 1 2 100 0 5.18363
12         6250 1 2 100 0 2.04204
13         3125 1 2 100 0 0.628319
14         6250 1 2 100 0 3.76991
15         3125 1 2 100 0 4.39823
16         6250 1 2 100 0 1.25664
17         3125 1 2 100 0 3.92699
18         6250 1 2 100 0 0.785398
19         3125 1 2 100 0 2.82743
20         6250 1 2 100 0 5.96903
21         3125 1 2 100 0 2.19911
22         6250 1 2 100 0 5.34071
23         3125 1 2 100 0 3.61283
24         6250 1 2 100 0 0.471239
25         3125 1 2 100 0 0.785398
26         6250 1 2 100 0 3.92699
27         3125 1 2 100 0 0
28         6250 1 2 100 0 3.14159
29         3125 1 2 100 0 1.25664
30         6250 1 2 100 0 4.39823
31         3125 1 2 100 0 4.55531
32         6250 1 2 100 0 1.41372
33         3125 1 2 100 0 4.71239
34         6250 1 2 100 0 1.5708
35         3125 1 2 100 0 0.471239
36         6250 1 2 100 0 3.61283
37         3125 1 2 100 0 1.41372
38         6250 1 2 100 0 4.55531
39         3125 1 2 100 0 3.14159
40         6250 1 2 100 0 0
41         3125 1 2 100 0 5.34071
42         6250 1 2 100 0 2.19911
43         3125 1 2 100 0 2.35619
44         6250 1 2 100 0 5.49779
45         3125 1 2 100 0 3.76991
46         6250 1 2 100 0 0.628319
47         3125 1 2 100 0 2.98451
48         6250 1 2 100 0 6.12611

# Format of trapezoid gradients:
# id amplitude rise flat fall delay
# ..      Hz/m   us   us   us    us
[TRAP]
 1  4.18462e+06  30  490  30   0
 2  2.05283e+06  20  510  20   0
 3           -0  10  530  10   0
 4  2.13333e+06  20 1000  20   0
 5            0  10  530  10   0
 6  4.24967e+06  30 2480  30   0
 7      -493827  10  530  10   0
 8       493827  10  530  10   0
 9      -987654  10  530  10   0
10       987654  10  530  10   0
11 -1.48148e+06  10  530  10   0
12  1.48148e+06  10  530  10   0
13 -2.01258e+06  20  510  20   0
14  2.01258e+06  20  510  20   0
15      -123457  10  530  10   0
16       123457  10  530  10   0
17      -246914  10  530  10   0
18       246914  10  530  10   0
19      -370370  10  530  10   0
20       370370  10  530  10   0
21      -617284  10  530  10   0
22       617284  10  530  10   0
23      -740741  10  530  10   0
24       740741  10  530  10   0
25      -864198  10  530  10   0
26       864198  10  530  10   0
27 -1.11111e+06  10  530  10   0
28  1.11111e+06  10  530  10   0
29 -1.23457e+06  10  530  10   0
30  1.23457e+06  10  530  10   0
31 -1.35802e+06  10  530  10   0
32  1.35802e+06  10  530  10   0
33 -1.60494e+06  10  530  10   0
34  1.60494e+06  10  530  10   0
35 -1.76101e+06  20  510  20   0
36  1.76101e+06  20  510  20   0
37 -1.88679e+06  20  510  20   0
38  1.88679e+06  20  510  20   0

# Format of ADC events:
# id num dwell delay freq phase
# ..  ..    ns    us   Hz   rad
[ADC]
1 64 15625 20 0 0

# Format of delays:
# id delay (us)
[DELAYS]
1 3380
2 3370
3 3170
4 3160
5 869960

# Sequence Shapes
[SHAPES]

shape_id 1
num_samples 100
1
0
0
77
-1
0
0
17

shape_id 2
num_samples 100
0
0
98

